Height Pressure Rho
0.000000e+00 1.000000e+05 1.161440e+00
1.617085e+02 9.817298e+04 1.144351e+00
3.228329e+02 9.637935e+04 1.127519e+00
4.833744e+02 9.461848e+04 1.110942e+00
6.433340e+02 9.288979e+04 1.094615e+00
8.027131e+02 9.119268e+04 1.078534e+00
9.615127e+02 8.952657e+04 1.062696e+00
1.119734e+03 8.789091e+04 1.047096e+00
1.277378e+03 8.628513e+04 1.031732e+00
1.434446e+03 8.470868e+04 1.016599e+00
1.590940e+03 8.316104e+04 1.001694e+00
1.746860e+03 8.164168e+04 9.870131e-01
1.902208e+03 8.015007e+04 9.725532e-01
2.056984e+03 7.868572e+04 9.583106e-01
2.211191e+03 7.724811e+04 9.442821e-01
2.364828e+03 7.583678e+04 9.304644e-01
2.517899e+03 7.445123e+04 9.168542e-01
2.670402e+03 7.309099e+04 9.034483e-01
2.822341e+03 7.175561e+04 8.902436e-01
2.973716e+03 7.044462e+04 8.772369e-01
3.124528e+03 6.915759e+04 8.644251e-01
3.274779e+03 6.789407e+04 8.518054e-01
3.424470e+03 6.665363e+04 8.393747e-01
3.573601e+03 6.543586e+04 8.271302e-01
3.722175e+03 6.424034e+04 8.150689e-01
3.870193e+03 6.306666e+04 8.031880e-01
4.017655e+03 6.191442e+04 7.914848e-01
4.164563e+03 6.078323e+04 7.799565e-01
4.310919e+03 5.967271e+04 7.686005e-01
4.456723e+03 5.858248e+04 7.574141e-01
4.601977e+03 5.751217e+04 7.463947e-01
4.746682e+03 5.646141e+04 7.355397e-01
4.890839e+03 5.542986e+04 7.248466e-01
5.034450e+03 5.441714e+04 7.143130e-01
5.177516e+03 5.342293e+04 7.039364e-01
5.320037e+03 5.244689e+04 6.937143e-01
5.462017e+03 5.148867e+04 6.836445e-01
5.603455e+03 5.054797e+04 6.737246e-01
5.744353e+03 4.962445e+04 6.639523e-01
5.884712e+03 4.871780e+04 6.543253e-01
6.024534e+03 4.782772e+04 6.448414e-01
6.163820e+03 4.695390e+04 6.354985e-01
6.302571e+03 4.609604e+04 6.262944e-01
6.440788e+03 4.525386e+04 6.172269e-01
6.578474e+03 4.442707e+04 6.082940e-01
6.715628e+03 4.361538e+04 5.994936e-01
6.852253e+03 4.281852e+04 5.908238e-01
6.988349e+03 4.203622e+04 5.822824e-01
7.123919e+03 4.126821e+04 5.738677e-01
7.258962e+03 4.051423e+04 5.655776e-01
7.393482e+03 3.977403e+04 5.574102e-01
7.527478e+03 3.904735e+04 5.493637e-01
7.660953e+03 3.833395e+04 5.414362e-01
7.793907e+03 3.763358e+04 5.336260e-01
7.926342e+03 3.694601e+04 5.259312e-01
8.058260e+03 3.627100e+04 5.183501e-01
8.189661e+03 3.560833e+04 5.108809e-01
8.320547e+03 3.495776e+04 5.035221e-01
8.450919e+03 3.431907e+04 4.962718e-01
8.580779e+03 3.369206e+04 4.891285e-01
8.710128e+03 3.307650e+04 4.820906e-01
8.838967e+03 3.247218e+04 4.751563e-01
8.967298e+03 3.187891e+04 4.683243e-01
9.095122e+03 3.129648e+04 4.615929e-01
9.222440e+03 3.072469e+04 4.549605e-01
9.349254e+03 3.016334e+04 4.484258e-01
9.475564e+03 2.961225e+04 4.419872e-01
9.601374e+03 2.907123e+04 4.356433e-01
9.726682e+03 2.854010e+04 4.293926e-01
9.851492e+03 2.801867e+04 4.232338e-01
9.975805e+03 2.750676e+04 4.171654e-01
1.009962e+04 2.700421e+04 4.111861e-01
1.022294e+04 2.651084e+04 4.052945e-01
1.034577e+04 2.602648e+04 3.994894e-01
1.046811e+04 2.555097e+04 3.937694e-01
1.058995e+04 2.508415e+04 3.881333e-01
1.071131e+04 2.462586e+04 3.825797e-01
1.083217e+04 2.417594e+04 3.771075e-01
1.095255e+04 2.373424e+04 3.717154e-01
1.107245e+04 2.330061e+04 3.664022e-01
1.119186e+04 2.287491e+04 3.611668e-01
1.131079e+04 2.245698e+04 3.560079e-01
1.142924e+04 2.204669e+04 3.509244e-01
1.154720e+04 2.164389e+04 3.459152e-01
1.166469e+04 2.124845e+04 3.409791e-01
1.178170e+04 2.086024e+04 3.361152e-01
1.189824e+04 2.047912e+04 3.313222e-01
1.201430e+04 2.010496e+04 3.265992e-01
1.212989e+04 1.973764e+04 3.219450e-01
1.224501e+04 1.937703e+04 3.173587e-01
1.235966e+04 1.902301e+04 3.128392e-01
1.247383e+04 1.867546e+04 3.083856e-01
1.258754e+04 1.833425e+04 3.039968e-01
1.270079e+04 1.799929e+04 2.996719e-01
1.281357e+04 1.767044e+04 2.954099e-01
1.292588e+04 1.734759e+04 2.912099e-01
1.303774e+04 1.703065e+04 2.870710e-01
1.314913e+04 1.671950e+04 2.829922e-01
1.326007e+04 1.641403e+04 2.789727e-01
1.337054e+04 1.611414e+04 2.750116e-01
1.348056e+04 1.581973e+04 2.711080e-01
1.359013e+04 1.553071e+04 2.672610e-01
1.369924e+04 1.524696e+04 2.634699e-01
1.380790e+04 1.496839e+04 2.597337e-01
1.391611e+04 1.469492e+04 2.560517e-01
1.402386e+04 1.442644e+04 2.524230e-01
1.413117e+04 1.416287e+04 2.488469e-01
1.423804e+04 1.390411e+04 2.453226e-01
1.434445e+04 1.365008e+04 2.418493e-01
1.445043e+04 1.340069e+04 2.384262e-01
1.455596e+04 1.315586e+04 2.350527e-01
1.466105e+04 1.291550e+04 2.317279e-01
1.476570e+04 1.267953e+04 2.284512e-01
1.486991e+04 1.244787e+04 2.252218e-01
1.497368e+04 1.222045e+04 2.220391e-01
1.507702e+04 1.199718e+04 2.189023e-01
1.517992e+04 1.177799e+04 2.158108e-01
1.528239e+04 1.156280e+04 2.127639e-01
1.538443e+04 1.135155e+04 2.097609e-01
1.548604e+04 1.114415e+04 2.068013e-01
1.558722e+04 1.094055e+04 2.038843e-01
1.568797e+04 1.074066e+04 2.010093e-01
1.578829e+04 1.054443e+04 1.981757e-01
1.588819e+04 1.035178e+04 1.953829e-01
1.598767e+04 1.016265e+04 1.926302e-01
1.608672e+04 9.976978e+03 1.899172e-01
1.618536e+04 9.794697e+03 1.872432e-01
1.628357e+04 9.615746e+03 1.846077e-01
1.638137e+04 9.440065e+03 1.820100e-01
1.647875e+04 9.267593e+03 1.794496e-01
1.657571e+04 9.098273e+03 1.769260e-01
1.667226e+04 8.932046e+03 1.744386e-01
1.676840e+04 8.768856e+03 1.719869e-01
1.686412e+04 8.608648e+03 1.695704e-01
1.695944e+04 8.451366e+03 1.671886e-01
1.705435e+04 8.296959e+03 1.648408e-01
1.714885e+04 8.145372e+03 1.625268e-01
1.724294e+04 7.996555e+03 1.602458e-01
1.733664e+04 7.850456e+03 1.579976e-01
1.742992e+04 7.707027e+03 1.557815e-01
1.752281e+04 7.566219e+03 1.535971e-01
1.761529e+04 7.427982e+03 1.514440e-01
1.770738e+04 7.292272e+03 1.493217e-01
1.779907e+04 7.159041e+03 1.472297e-01
1.789036e+04 7.028244e+03 1.451676e-01
1.798126e+04 6.899837e+03 1.431350e-01
1.807176e+04 6.773776e+03 1.411314e-01
1.816187e+04 6.650018e+03 1.391563e-01
1.825159e+04 6.528521e+03 1.372095e-01
1.834092e+04 6.409244e+03 1.352905e-01
1.842987e+04 6.292146e+03 1.333988e-01
1.851842e+04 6.177188e+03 1.315341e-01
1.860659e+04 6.064329e+03 1.296960e-01
1.869438e+04 5.953533e+03 1.278840e-01
1.878178e+04 5.844761e+03 1.260979e-01
1.886880e+04 5.737976e+03 1.243372e-01
1.895544e+04 5.633143e+03 1.226016e-01
1.904170e+04 5.530224e+03 1.208906e-01
1.912759e+04 5.429186e+03 1.192040e-01
1.921309e+04 5.329994e+03 1.175414e-01
1.929823e+04 5.232614e+03 1.159024e-01
1.938298e+04 5.137014e+03 1.142867e-01
1.946737e+04 5.043159e+03 1.126939e-01
1.955139e+04 4.951020e+03 1.111238e-01
1.963503e+04 4.860564e+03 1.095759e-01
1.971831e+04 4.771761e+03 1.080501e-01
1.980122e+04 4.684580e+03 1.065458e-01
1.988377e+04 4.598992e+03 1.050629e-01
1.996595e+04 4.514968e+03 1.036010e-01
2.004776e+04 4.432479e+03 1.021599e-01
2.012922e+04 4.351497e+03 1.007392e-01
2.021031e+04 4.271994e+03 9.933855e-02
2.029105e+04 4.193944e+03 9.795777e-02
2.037143e+04 4.117320e+03 9.659653e-02
2.045145e+04 4.042096e+03 9.525456e-02
2.053111e+04 3.968246e+03 9.393158e-02
2.061042e+04 3.895746e+03 9.262730e-02
2.068938e+04 3.824570e+03 9.134146e-02
2.076799e+04 3.754694e+03 9.007380e-02
2.084624e+04 3.686095e+03 8.882404e-02
2.092415e+04 3.618750e+03 8.759194e-02
2.100171e+04 3.552635e+03 8.637724e-02
2.107893e+04 3.487727e+03 8.517968e-02
2.115579e+04 3.424006e+03 8.399902e-02
2.123232e+04 3.361449e+03 8.283502e-02
2.130850e+04 3.300035e+03 8.168743e-02
2.138434e+04 3.239743e+03 8.055602e-02
2.145984e+04 3.180552e+03 7.944056e-02
2.153500e+04 3.122443e+03 7.834082e-02
2.160983e+04 3.065395e+03 7.725656e-02
2.168432e+04 3.009390e+03 7.618758e-02
2.175847e+04 2.954408e+03 7.513364e-02
2.183229e+04 2.900430e+03 7.409454e-02
2.190578e+04 2.847439e+03 7.307005e-02
2.197893e+04 2.795416e+03 7.205997e-02
2.205176e+04 2.744343e+03 7.106410e-02
2.212426e+04 2.694204e+03 7.008222e-02
2.219643e+04 2.644980e+03 6.911415e-02
2.226827e+04 2.596656e+03 6.815967e-02
2.233979e+04 2.549215e+03 6.721859e-02
2.241098e+04 2.502640e+03 6.629073e-02
2.248185e+04 2.456916e+03 6.537590e-02
2.255240e+04 2.412028e+03 6.447390e-02
2.262264e+04 2.367960e+03 6.358455e-02
2.269255e+04 2.324697e+03 6.270768e-02
2.276214e+04 2.282224e+03 6.184310e-02
2.283142e+04 2.240528e+03 6.099063e-02
2.290038e+04 2.199593e+03 6.015012e-02
2.296903e+04 2.159406e+03 5.932137e-02
2.303736e+04 2.119953e+03 5.850423e-02
2.310539e+04 2.081222e+03 5.769854e-02
2.317310e+04 2.043197e+03 5.690411e-02
2.324051e+04 2.005868e+03 5.612081e-02
2.330760e+04 1.969220e+03 5.534846e-02
2.337439e+04 1.933242e+03 5.458691e-02
2.344088e+04 1.897922e+03 5.383601e-02
2.350706e+04 1.863246e+03 5.309561e-02
2.357293e+04 1.829205e+03 5.236555e-02
2.363851e+04 1.795785e+03 5.164569e-02
2.370378e+04 1.762975e+03 5.093588e-02
2.376875e+04 1.730766e+03 5.023598e-02
2.383343e+04 1.699144e+03 4.954585e-02
2.389781e+04 1.668101e+03 4.886535e-02
2.396189e+04 1.637624e+03 4.819435e-02
2.402568e+04 1.607704e+03 4.753270e-02
2.408917e+04 1.578331e+03 4.688028e-02
2.415237e+04 1.549495e+03 4.623695e-02
2.421528e+04 1.521186e+03 4.560259e-02
2.427790e+04 1.493393e+03 4.497706e-02
2.434023e+04 1.466109e+03 4.436025e-02
2.440227e+04 1.439323e+03 4.375203e-02
2.446402e+04 1.413026e+03 4.315227e-02
2.452549e+04 1.387210e+03 4.256087e-02
2.458667e+04 1.361865e+03 4.197768e-02
2.464757e+04 1.336984e+03 4.140262e-02
2.470819e+04 1.312557e+03 4.083555e-02
2.476853e+04 1.288576e+03 4.027636e-02
2.482859e+04 1.265034e+03 3.972495e-02
2.488837e+04 1.241921e+03 3.918119e-02
2.494787e+04 1.219231e+03 3.864500e-02
2.500709e+04 1.196956e+03 3.811625e-02
2.506604e+04 1.175087e+03 3.759484e-02
2.512471e+04 1.153618e+03 3.708067e-02
2.518311e+04 1.132541e+03 3.657364e-02
2.524124e+04 1.111850e+03 3.607364e-02
2.529910e+04 1.091536e+03 3.558058e-02
2.535668e+04 1.071593e+03 3.509435e-02
2.541400e+04 1.052015e+03 3.461487e-02
2.547105e+04 1.032795e+03 3.414204e-02
2.552784e+04 1.013925e+03 3.367575e-02
2.558435e+04 9.954008e+02 3.321593e-02
2.564061e+04 9.772147e+02 3.276248e-02
2.569660e+04 9.593608e+02 3.231531e-02
2.575232e+04 9.418332e+02 3.187433e-02
2.580779e+04 9.246257e+02 3.143945e-02
2.586300e+04 9.077327e+02 3.101059e-02
2.591794e+04 8.911482e+02 3.058766e-02
2.597263e+04 8.748668e+02 3.017059e-02
2.602706e+04 8.588829e+02 2.975928e-02
2.608124e+04 8.431909e+02 2.935366e-02
2.613516e+04 8.277857e+02 2.895365e-02
2.618883e+04 8.126619e+02 2.855916e-02
2.624224e+04 7.978145e+02 2.817013e-02
2.629540e+04 7.832383e+02 2.778647e-02
2.634831e+04 7.689284e+02 2.740811e-02
2.640097e+04 7.548799e+02 2.703497e-02
2.645339e+04 7.410882e+02 2.666699e-02
2.650555e+04 7.275484e+02 2.630408e-02
2.655747e+04 7.142559e+02 2.594618e-02
2.660915e+04 7.012064e+02 2.559322e-02
2.666057e+04 6.883952e+02 2.524512e-02
2.671176e+04 6.758181e+02 2.490183e-02
2.676270e+04 6.634708e+02 2.456327e-02
2.681340e+04 6.513491e+02 2.422937e-02
2.686386e+04 6.394488e+02 2.390008e-02
2.691409e+04 6.277660e+02 2.357533e-02
2.696407e+04 6.162966e+02 2.325504e-02
2.701381e+04 6.050368e+02 2.293917e-02
2.706332e+04 5.939827e+02 2.262765e-02
2.711260e+04 5.831305e+02 2.232042e-02
2.716164e+04 5.724766e+02 2.201742e-02
2.721044e+04 5.620174e+02 2.171858e-02
2.725901e+04 5.517492e+02 2.142386e-02
2.730736e+04 5.416687e+02 2.113319e-02
2.735547e+04 5.317723e+02 2.084652e-02
2.740335e+04 5.220568e+02 2.056379e-02
2.745100e+04 5.125187e+02 2.028495e-02
2.749843e+04 5.031549e+02 2.000994e-02
2.754563e+04 4.939622e+02 1.973871e-02
2.759260e+04 4.849374e+02 1.947120e-02
2.763935e+04 4.760775e+02 1.920738e-02
2.768587e+04 4.673795e+02 1.894717e-02
2.773217e+04 4.588404e+02 1.869054e-02
2.777825e+04 4.504573e+02 1.843743e-02
2.782411e+04 4.422274e+02 1.818779e-02
2.786975e+04 4.341478e+02 1.794159e-02
2.791517e+04 4.262159e+02 1.769876e-02
2.796037e+04 4.184289e+02 1.745926e-02
2.800536e+04 4.107841e+02 1.722304e-02
2.805013e+04 4.032790e+02 1.699007e-02
2.809468e+04 3.959110e+02 1.676029e-02
2.813902e+04 3.886777e+02 1.653366e-02
2.818314e+04 3.815765e+02 1.631014e-02
2.822706e+04 3.746050e+02 1.608968e-02
2.827076e+04 3.677609e+02 1.587224e-02
2.831425e+04 3.610419e+02 1.565778e-02
2.835753e+04 3.544456e+02 1.544626e-02
2.840060e+04 3.479698e+02 1.523763e-02
2.844346e+04 3.416123e+02 1.503186e-02
2.848612e+04 3.353710e+02 1.482891e-02
2.852857e+04 3.292437e+02 1.462874e-02
2.857082e+04 3.232284e+02 1.443130e-02
2.861286e+04 3.173230e+02 1.423657e-02
2.865469e+04 3.115254e+02 1.404450e-02
2.869633e+04 3.058338e+02 1.385506e-02
2.873776e+04 3.002462e+02 1.366821e-02
2.877899e+04 2.947606e+02 1.348392e-02
2.882002e+04 2.893753e+02 1.330214e-02
2.886085e+04 2.840884e+02 1.312285e-02
2.890149e+04 2.788980e+02 1.294601e-02
2.894192e+04 2.738025e+02 1.277159e-02
2.898216e+04 2.688001e+02 1.259955e-02
2.902220e+04 2.638891e+02 1.242986e-02
2.906205e+04 2.590678e+02 1.226249e-02
2.910171e+04 2.543346e+02 1.209740e-02
2.914117e+04 2.496878e+02 1.193457e-02
2.918044e+04 2.451260e+02 1.177396e-02
2.921951e+04 2.406475e+02 1.161554e-02
2.925840e+04 2.362508e+02 1.145929e-02
2.929709e+04 2.319345e+02 1.130517e-02
2.933560e+04 2.276970e+02 1.115315e-02
2.937392e+04 2.235370e+02 1.100320e-02
2.941205e+04 2.194529e+02 1.085530e-02
2.945000e+04 2.154435e+02 1.070942e-02
2.948775e+04 2.115073e+02 1.056552e-02
2.952533e+04 2.076430e+02 1.042359e-02
2.956272e+04 2.038493e+02 1.028360e-02
2.959994e+04 2.001250e+02 1.013895e-02
2.963698e+04 1.964687e+02 1.000244e-02
2.967385e+04 1.928792e+02 9.867786e-03
2.971054e+04 1.893552e+02 9.734960e-03
2.974705e+04 1.858957e+02 9.603941e-03
2.978338e+04 1.824993e+02 9.474701e-03
2.981953e+04 1.791650e+02 9.347219e-03
2.985551e+04 1.758917e+02 9.221468e-03
2.989131e+04 1.726781e+02 9.097425e-03
2.992694e+04 1.695232e+02 8.975068e-03
2.996239e+04 1.664260e+02 8.854371e-03
2.999767e+04 1.633854e+02 8.735314e-03
3.003277e+04 1.604003e+02 8.617873e-03
3.006771e+04 1.574698e+02 8.502026e-03
3.010247e+04 1.545928e+02 8.387750e-03
3.013706e+04 1.517683e+02 8.275026e-03
3.017149e+04 1.489955e+02 8.163830e-03
3.020574e+04 1.462733e+02 8.054143e-03
3.023983e+04 1.436009e+02 7.945944e-03
3.027375e+04 1.409773e+02 7.839211e-03
3.030751e+04 1.384016e+02 7.733925e-03
3.034109e+04 1.358730e+02 7.630067e-03
3.037452e+04 1.333906e+02 7.527616e-03
3.040778e+04 1.309535e+02 7.426553e-03
3.044087e+04 1.285610e+02 7.326859e-03
3.047381e+04 1.262121e+02 7.228516e-03
3.050658e+04 1.239062e+02 7.131505e-03
3.053919e+04 1.216424e+02 7.035807e-03
3.057164e+04 1.194200e+02 6.941405e-03
3.060393e+04 1.172382e+02 6.848281e-03
3.063606e+04 1.150962e+02 6.756417e-03
3.066803e+04 1.129934e+02 6.665797e-03
3.069985e+04 1.109290e+02 6.576402e-03
3.073151e+04 1.089023e+02 6.488217e-03
3.076301e+04 1.069126e+02 6.401225e-03
3.079436e+04 1.049593e+02 6.315409e-03
3.082555e+04 1.030417e+02 6.230754e-03
3.085659e+04 1.011591e+02 6.147243e-03
3.088748e+04 9.931092e+01 6.064861e-03
3.091821e+04 9.749649e+01 5.983593e-03
3.094879e+04 9.571522e+01 5.903423e-03
3.097923e+04 9.396648e+01 5.824336e-03
3.100951e+04 9.224970e+01 5.746317e-03
3.103964e+04 9.056428e+01 5.669353e-03
3.106962e+04 8.890966e+01 5.593427e-03
3.109945e+04 8.728527e+01 5.518527e-03
3.112914e+04 8.569055e+01 5.444639e-03
3.115868e+04 8.412497e+01 5.371748e-03
3.118807e+04 8.258799e+01 5.299840e-03
3.121732e+04 8.107910e+01 5.228903e-03
3.124642e+04 7.959777e+01 5.158924e-03
3.127538e+04 7.814351e+01 5.089888e-03
3.130420e+04 7.671581e+01 5.021784e-03
3.133287e+04 7.531420e+01 4.954598e-03
3.136140e+04 7.393820e+01 4.888318e-03
3.138979e+04 7.258734e+01 4.822932e-03
3.141804e+04 7.126115e+01 4.758428e-03
3.144614e+04 6.995920e+01 4.694793e-03
3.147411e+04 6.868104e+01 4.632016e-03
3.150194e+04 6.742622e+01 4.570085e-03
3.152963e+04 6.619433e+01 4.508988e-03
3.155719e+04 6.498495e+01 4.448714e-03
3.158460e+04 6.379767e+01 4.389253e-03
3.161188e+04 6.263207e+01 4.330592e-03
3.163903e+04 6.148778e+01 4.272721e-03
3.166604e+04 6.036439e+01 4.215630e-03
3.169291e+04 5.926152e+01 4.159307e-03
3.171965e+04 5.817880e+01 4.103743e-03
3.174626e+04 5.711586e+01 4.048926e-03
3.177274e+04 5.607235e+01 3.994847e-03
3.179908e+04 5.504790e+01 3.941496e-03
3.182529e+04 5.404216e+01 3.888863e-03
3.185137e+04 5.305481e+01 3.836938e-03
3.187733e+04 5.208549e+01 3.785711e-03
3.190315e+04 5.113388e+01 3.735174e-03
3.192884e+04 5.019965e+01 3.685316e-03
3.195441e+04 4.928250e+01 3.636128e-03
3.197985e+04 4.838210e+01 3.587602e-03
3.200516e+04 4.749815e+01 3.539728e-03
3.203034e+04 4.663035e+01 3.492498e-03
3.205540e+04 4.577841e+01 3.445902e-03
3.208033e+04 4.494203e+01 3.399933e-03
3.210514e+04 4.412093e+01 3.354582e-03
3.212983e+04 4.331483e+01 3.309840e-03
3.215439e+04 4.252346e+01 3.265698e-03
3.217883e+04 4.174655e+01 3.222150e-03
3.220315e+04 4.098384e+01 3.179187e-03
3.222734e+04 4.023506e+01 3.136801e-03
3.225141e+04 3.949995e+01 3.094984e-03
3.227537e+04 3.877828e+01 3.053729e-03
3.229920e+04 3.806980e+01 3.013028e-03
3.232291e+04 3.737426e+01 2.972873e-03
3.234651e+04 3.669142e+01 2.933257e-03
3.236999e+04 3.602107e+01 2.894172e-03
3.239335e+04 3.536296e+01 2.855613e-03
3.241659e+04 3.471687e+01 2.817571e-03
3.243971e+04 3.408259e+01 2.780044e-03
3.246272e+04 3.345989e+01 2.743021e-03
3.248562e+04 3.284857e+01 2.706494e-03
3.250839e+04 3.224842e+01 2.670457e-03
3.253106e+04 3.165924e+01 2.634903e-03
3.255361e+04 3.108082e+01 2.599825e-03
3.257605e+04 3.051297e+01 2.565218e-03
3.259837e+04 2.995549e+01 2.531074e-03
3.262058e+04 2.940820e+01 2.497388e-03
3.264268e+04 2.887091e+01 2.464154e-03
3.266467e+04 2.834343e+01 2.431364e-03
3.268655e+04 2.782559e+01 2.399014e-03
3.270832e+04 2.731722e+01 2.367098e-03
3.272998e+04 2.681813e+01 2.335609e-03
3.275153e+04 2.632815e+01 2.304541e-03
3.277297e+04 2.584714e+01 2.273890e-03
3.279431e+04 2.537490e+01 2.243649e-03
3.281553e+04 2.491130e+01 2.213813e-03
3.283665e+04 2.445617e+01 2.184377e-03
3.285766e+04 2.400935e+01 2.155334e-03
3.287857e+04 2.357069e+01 2.126681e-03
3.289937e+04 2.314005e+01 2.098411e-03
3.292007e+04 2.271728e+01 2.070519e-03
3.294066e+04 2.230223e+01 2.043001e-03
3.296115e+04 2.189477e+01 2.015850e-03
3.298153e+04 2.149475e+01 1.989063e-03
3.300181e+04 2.110203e+01 1.962635e-03
3.302199e+04 2.071650e+01 1.936560e-03
3.304207e+04 2.033800e+01 1.910834e-03
3.306204e+04 1.996642e+01 1.885452e-03
3.308192e+04 1.960163e+01 1.860410e-03
3.310169e+04 1.924351e+01 1.835702e-03
3.312137e+04 1.889193e+01 1.811325e-03
3.314094e+04 1.854677e+01 1.787274e-03
3.316042e+04 1.820792e+01 1.763545e-03
3.317979e+04 1.787526e+01 1.740132e-03
3.319907e+04 1.754867e+01 1.717033e-03
3.321825e+04 1.722805e+01 1.694243e-03
3.323734e+04 1.691330e+01 1.671757e-03
3.325633e+04 1.660429e+01 1.649572e-03
3.327522e+04 1.630092e+01 1.627684e-03
3.329401e+04 1.600310e+01 1.606088e-03
3.331271e+04 1.571072e+01 1.584780e-03
3.333132e+04 1.542369e+01 1.563758e-03
3.334983e+04 1.514189e+01 1.543016e-03
3.336825e+04 1.486525e+01 1.522552e-03
3.338657e+04 1.459366e+01 1.502361e-03
3.340480e+04 1.432703e+01 1.482439e-03
3.342294e+04 1.406527e+01 1.462784e-03
3.344098e+04 1.380830e+01 1.443392e-03
3.345894e+04 1.355602e+01 1.424258e-03
3.347680e+04 1.330835e+01 1.405381e-03
3.349457e+04 1.306520e+01 1.386755e-03
3.351226e+04 1.282650e+01 1.368378e-03
3.352985e+04 1.259216e+01 1.350247e-03
3.354735e+04 1.236210e+01 1.332357e-03
3.356476e+04 1.213624e+01 1.314707e-03
3.358209e+04 1.191451e+01 1.296989e-03
3.359933e+04 1.169683e+01 1.279789e-03
3.361648e+04 1.148312e+01 1.262818e-03
3.363355e+04 1.127333e+01 1.246073e-03
3.365053e+04 1.106736e+01 1.229552e-03
3.366742e+04 1.086516e+01 1.213250e-03
3.368423e+04 1.066665e+01 1.197166e-03
3.370095e+04 1.047177e+01 1.181296e-03
3.371759e+04 1.028045e+01 1.165638e-03
3.373414e+04 1.009262e+01 1.150188e-03
3.375061e+04 9.908228e+00 1.134943e-03
3.376699e+04 9.727203e+00 1.119902e-03
3.378329e+04 9.549486e+00 1.105061e-03
3.379951e+04 9.375015e+00 1.090418e-03
3.381565e+04 9.203732e+00 1.075969e-03
3.383170e+04 9.035578e+00 1.061713e-03
3.384767e+04 8.870497e+00 1.047647e-03
3.386356e+04 8.708431e+00 1.033768e-03
3.387937e+04 8.549327e+00 1.020073e-03
3.389510e+04 8.393129e+00 1.006561e-03
3.391075e+04 8.239786e+00 9.932287e-04
3.392632e+04 8.089243e+00 9.800737e-04
